level,hour_bucket,n,p_beyond,p_behind,p_last,p_ambig,avg_min_to_beyond,med_min_to_beyond,avg_min_to_behind,med_min_to_behind
-2.00,ALL,111,0.40540540540540543,0.4864864864864865,0.06306306306306306,0.04504504504504504,18.533333333333335,12.0,15.944444444444445,9.0
-1.786,ALL,179,0.25139664804469275,0.664804469273743,0.055865921787709494,0.027932960893854747,27.8,9.0,13.663865546218487,6.0
-1.618,ALL,234,0.24786324786324787,0.6495726495726496,0.03418803418803419,0.06837606837606838,15.724137931034482,9.0,5.940789473684211,0.0
-1.50,ALL,297,0.3501683501683502,0.5185185185185185,0.02356902356902357,0.10774410774410774,8.423076923076923,6.0,7.87012987012987,3.0
-1.382,ALL,364,0.4697802197802198,0.4340659340659341,0.027472527472527472,0.06868131868131869,14.12280701754386,9.0,9.531645569620252,6.0
-1.236,ALL,484,0.5247933884297521,0.3615702479338843,0.07231404958677685,0.04132231404958678,23.22047244094488,12.0,29.4,18.0
-1.00,ALL,748,0.410427807486631,0.4572192513368984,0.10695187165775401,0.02540106951871658,38.33550488599349,24.0,30.026315789473685,15.0
-0.786,ALL,1035,0.40869565217391307,0.4801932367149758,0.05410628019323672,0.057004830917874394,30.26241134751773,18.0,24.440643863179073,12.0
-0.618,ALL,1345,0.3174721189591078,0.5814126394052045,0.021561338289962824,0.0795539033457249,18.224824355971897,9.0,12.544757033248082,3.0
-0.50,ALL,1594,0.3506900878293601,0.5119196988707654,0.016938519447929738,0.12045169385194479,11.865831842576029,6.0,10.051470588235293,0.0
-0.382,ALL,1939,0.40948942753996903,0.44971634863331617,0.01598762248581743,0.12480660134089737,14.17632241813602,6.0,17.115825688073393,9.0
-0.236,ALL,2242,0.6409455842997324,0.3055307760927743,0.038804638715432646,0.014719000892060661,23.505219206680586,9.0,51.55620437956205,33.0
+0.236,ALL,2306,0.6092801387684302,0.3044232437120555,0.06678230702515178,0.019514310494362534,29.976512455516016,9.0,52.76495726495727,33.0
+0.382,ALL,2029,0.4613109906357812,0.37851158206012814,0.04090685066535239,0.1192705766387383,29.935897435897434,12.0,23.875,9.0
+0.50,ALL,1721,0.40906449738524114,0.4352120859965137,0.03776873910517141,0.1179546775130738,28.316761363636363,12.0,19.66622162883845,6.0
+0.618,ALL,1431,0.35150244584206847,0.506638714185884,0.07896575821104122,0.06289308176100629,41.54671968190855,24.0,26.060689655172414,9.0
+0.786,ALL,1028,0.42996108949416345,0.4046692607003891,0.13132295719844359,0.03404669260700389,67.2420814479638,42.0,42.85096153846154,21.0
+1.00,ALL,662,0.4108761329305136,0.3293051359516616,0.243202416918429,0.01661631419939577,78.46323529411765,60.0,61.69266055045872,36.0
+1.236,ALL,367,0.5122615803814714,0.25885558583106266,0.2125340599455041,0.01634877384196185,54.36702127659574,30.0,61.357894736842105,42.0
+1.382,ALL,237,0.4978902953586498,0.34177215189873417,0.11814345991561181,0.04219409282700422,32.97457627118644,15.0,27.74074074074074,18.0
+1.50,ALL,164,0.4573170731707317,0.4146341463414634,0.08536585365853659,0.042682926829268296,24.56,12.0,20.602941176470587,12.0
+1.618,ALL,118,0.4322033898305085,0.4661016949152542,0.07627118644067797,0.025423728813559324,27.058823529411764,18.0,22.145454545454545,6.0
+1.786,ALL,70,0.2714285714285714,0.42857142857142855,0.24285714285714285,0.05714285714285714,50.8421052631579,27.0,44.0,24.0
+2.00,ALL,31,0.25806451612903225,0.5161290322580645,0.22580645161290322,0.0,28.125,16.5,33.75,16.5
-2.00,09:30-10:00,18,0.3333333333333333,0.5,0.0,0.16666666666666666,10.5,3.0,2.3333333333333335,0.0
-2.00,10:00-11:00,13,0.46153846153846156,0.5384615384615384,0.0,0.0,19.0,13.5,13.285714285714286,9.0
-2.00,11:00-12:00,14,0.35714285714285715,0.5714285714285714,0.0,0.07142857142857142,15.0,12.0,12.75,7.5
-2.00,12:00-13:00,13,0.3076923076923077,0.6923076923076923,0.0,0.0,14.25,13.5,21.666666666666668,18.0
-2.00,13:00-14:00,11,0.5454545454545454,0.45454545454545453,0.0,0.0,34.0,25.5,30.6,21.0
-2.00,14:00-15:00,20,0.55,0.4,0.0,0.05,19.90909090909091,15.0,28.5,30.0
-2.00,15:00-16:00,22,0.3181818181818182,0.36363636363636365,0.3181818181818182,0.0,14.571428571428571,9.0,8.625,7.5
-1.786,09:30-10:00,27,0.2222222222222222,0.6296296296296297,0.0,0.14814814814814814,5.0,3.0,0.7058823529411765,0.0
-1.786,10:00-11:00,29,0.3448275862068966,0.6551724137931034,0.0,0.0,38.1,21.0,13.263157894736842,12.0
-1.786,11:00-12:00,25,0.28,0.72,0.0,0.0,20.142857142857142,9.0,12.333333333333334,1.5
-1.786,12:00-13:00,19,0.42105263157894735,0.5789473684210527,0.0,0.0,53.625,37.5,23.181818181818183,12.0
-1.786,13:00-14:00,18,0.16666666666666666,0.7777777777777778,0.0,0.05555555555555555,30.0,12.0,15.428571428571429,7.5
-1.786,14:00-15:00,29,0.1724137931034483,0.8275862068965517,0.0,0.0,23.4,12.0,20.75,18.0
-1.786,15:00-16:00,32,0.1875,0.5,0.3125,0.0,10.5,9.0,10.6875,9.0
-1.618,09:30-10:00,38,0.13157894736842105,0.5789473684210527,0.0,0.2894736842105263,4.8,3.0,0.2727272727272727,0.0
-1.618,10:00-11:00,38,0.23684210526315788,0.7368421052631579,0.0,0.02631578947368421,18.333333333333332,12.0,3.2142857142857144,0.0
-1.618,11:00-12:00,30,0.2,0.7,0.0,0.1,19.0,4.5,4.285714285714286,3.0
-1.618,12:00-13:00,30,0.36666666666666664,0.6333333333333333,0.0,0.0,16.90909090909091,9.0,7.2631578947368425,3.0
-1.618,13:00-14:00,29,0.20689655172413793,0.7586206896551724,0.0,0.034482758620689655,32.0,28.5,16.09090909090909,6.0
-1.618,14:00-15:00,31,0.3870967741935484,0.5806451612903226,0.03225806451612903,0.0,11.5,7.5,8.0,6.0
-1.618,15:00-16:00,38,0.23684210526315788,0.5789473684210527,0.18421052631578946,0.0,10.333333333333334,12.0,3.6818181818181817,1.5
-1.50,09:30-10:00,50,0.16,0.42,0.0,0.42,0.75,0.0,2.2857142857142856,0.0
-1.50,10:00-11:00,56,0.39285714285714285,0.5714285714285714,0.0,0.03571428571428571,6.136363636363637,4.5,6.1875,0.0
-1.50,11:00-12:00,41,0.3170731707317073,0.5853658536585366,0.0,0.0975609756097561,7.846153846153846,9.0,9.125,6.0
-1.50,12:00-13:00,32,0.5,0.46875,0.0,0.03125,7.5,4.5,15.8,12.0
-1.50,13:00-14:00,35,0.5428571428571428,0.45714285714285713,0.0,0.0,10.578947368421053,9.0,9.5625,10.5
-1.50,14:00-15:00,38,0.34210526315789475,0.5789473684210527,0.02631578947368421,0.05263157894736842,17.76923076923077,9.0,11.454545454545455,9.0
-1.50,15:00-16:00,45,0.28888888888888886,0.5333333333333333,0.13333333333333333,0.044444444444444446,6.230769230769231,6.0,4.375,1.5
-1.382,09:30-10:00,64,0.34375,0.375,0.0,0.28125,9.0,4.5,2.5,0.0
-1.382,10:00-11:00,73,0.4246575342465753,0.5342465753424658,0.0,0.0410958904109589,7.935483870967742,6.0,7.076923076923077,6.0
-1.382,11:00-12:00,53,0.4716981132075472,0.4716981132075472,0.0,0.05660377358490566,12.96,6.0,14.4,15.0
-1.382,12:00-13:00,39,0.6923076923076923,0.3076923076923077,0.0,0.0,19.444444444444443,15.0,17.25,6.0
-1.382,13:00-14:00,43,0.5581395348837209,0.4418604651162791,0.0,0.0,21.875,15.0,12.631578947368421,9.0
-1.382,14:00-15:00,43,0.4418604651162791,0.5348837209302325,0.0,0.023255813953488372,21.31578947368421,18.0,10.565217391304348,6.0
-1.382,15:00-16:00,49,0.46938775510204084,0.32653061224489793,0.20408163265306123,0.0,8.347826086956522,6.0,7.5,3.0
-1.236,09:30-10:00,115,0.4434782608695652,0.40869565217391307,0.0,0.14782608695652175,9.470588235294118,6.0,10.27659574468085,6.0
-1.236,10:00-11:00,95,0.6105263157894737,0.3894736842105263,0.0,0.0,33.672413793103445,15.0,34.13513513513514,27.0
-1.236,11:00-12:00,67,0.582089552238806,0.373134328358209,0.014925373134328358,0.029850746268656716,35.23076923076923,18.0,48.84,39.0
-1.236,12:00-13:00,45,0.5333333333333333,0.4666666666666667,0.0,0.0,23.625,15.0,46.142857142857146,33.0
-1.236,13:00-14:00,44,0.6818181818181818,0.29545454545454547,0.022727272727272728,0.0,23.3,18.0,33.69230769230769,30.0
-1.236,14:00-15:00,48,0.5208333333333334,0.4166666666666667,0.041666666666666664,0.020833333333333332,21.48,9.0,31.2,31.5
-1.236,15:00-16:00,70,0.38571428571428573,0.17142857142857143,0.44285714285714284,0.0,10.555555555555555,6.0,12.25,9.0
-1.00,09:30-10:00,201,0.4079601990049751,0.5124378109452736,0.0,0.07960199004975124,17.121951219512194,12.0,9.20388349514563,0.0
-1.00,10:00-11:00,154,0.5324675324675324,0.4675324675324675,0.0,0.0,50.853658536585364,31.5,43.375,22.5
-1.00,11:00-12:00,95,0.49473684210526314,0.4842105263157895,0.0,0.021052631578947368,47.61702127659574,33.0,47.54347826086956,27.0
-1.00,12:00-13:00,66,0.4090909090909091,0.5454545454545454,0.045454545454545456,0.0,57.111111111111114,39.0,55.25,36.0
-1.00,13:00-14:00,55,0.45454545454545453,0.4727272727272727,0.07272727272727272,0.0,49.2,36.0,38.76923076923077,28.5
-1.00,14:00-15:00,71,0.29577464788732394,0.5070422535211268,0.18309859154929578,0.014084507042253521,36.285714285714285,30.0,22.333333333333332,15.0
-1.00,15:00-16:00,106,0.2169811320754717,0.2169811320754717,0.5660377358490566,0.0,18.391304347826086,15.0,9.130434782608695,6.0
-0.786,09:30-10:00,348,0.3505747126436782,0.4942528735632184,0.0,0.15517241379310345,21.221311475409838,12.0,13.412790697674419,3.0
-0.786,10:00-11:00,203,0.4827586206896552,0.5123152709359606,0.0,0.0049261083743842365,34.5,19.5,36.69230769230769,19.5
-0.786,11:00-12:00,133,0.48120300751879697,0.49624060150375937,0.007518796992481203,0.015037593984962405,39.375,22.5,29.863636363636363,21.0
-0.786,12:00-13:00,77,0.45454545454545453,0.5194805194805194,0.025974025974025976,0.0,42.68571428571428,18.0,34.425,31.5
-0.786,13:00-14:00,75,0.41333333333333333,0.5333333333333333,0.05333333333333334,0.0,39.29032258064516,24.0,34.5,22.5
-0.786,14:00-15:00,82,0.45121951219512196,0.45121951219512196,0.07317073170731707,0.024390243902439025,27.0,21.0,21.56756756756757,18.0
-0.786,15:00-16:00,117,0.3076923076923077,0.3247863247863248,0.36752136752136755,0.0,16.666666666666668,13.5,13.105263157894736,10.5
-0.618,09:30-10:00,509,0.25736738703339884,0.555992141453831,0.0,0.18664047151277013,9.938931297709924,6.0,6.169611307420495,0.0
-0.618,10:00-11:00,276,0.34782608695652173,0.6521739130434783,0.0,0.0,17.40625,9.0,13.633333333333333,4.5
-0.618,11:00-12:00,143,0.4125874125874126,0.5734265734265734,0.0,0.013986013986013986,25.06779661016949,12.0,23.341463414634145,12.0
-0.618,12:00-13:00,93,0.3978494623655914,0.5806451612903226,0.0,0.021505376344086023,33.648648648648646,27.0,23.055555555555557,18.0
-0.618,13:00-14:00,91,0.4175824175824176,0.5604395604395604,0.0,0.02197802197802198,26.842105263157894,21.0,16.647058823529413,9.0
-0.618,14:00-15:00,106,0.2830188679245283,0.6792452830188679,0.0,0.03773584905660377,19.3,13.5,14.916666666666666,6.0
-0.618,15:00-16:00,127,0.28346456692913385,0.47244094488188976,0.2283464566929134,0.015748031496062992,13.5,9.0,8.8,4.5
-0.50,09:30-10:00,683,0.26207906295754024,0.48755490483162517,0.0,0.25036603221083453,7.089385474860335,3.0,4.252252252252252,0.0
-0.50,10:00-11:00,321,0.3956386292834891,0.5856697819314641,0.0,0.018691588785046728,12.637795275590552,6.0,10.24468085106383,6.0
-0.50,11:00-12:00,145,0.4413793103448276,0.5448275862068965,0.0,0.013793103448275862,17.671875,9.0,16.063291139240505,9.0
-0.50,12:00-13:00,110,0.42727272727272725,0.5454545454545454,0.00909090909090909,0.01818181818181818,13.595744680851064,9.0,23.3,18.0
-0.50,13:00-14:00,98,0.5,0.5,0.0,0.0,18.979591836734695,12.0,25.53061224489796,15.0
-0.50,14:00-15:00,103,0.3786407766990291,0.5339805825242718,0.0,0.08737864077669903,14.076923076923077,9.0,10.909090909090908,3.0
-0.50,15:00-16:00,134,0.40298507462686567,0.3880597014925373,0.19402985074626866,0.014925373134328358,9.444444444444445,9.0,6.576923076923077,3.0
-0.382,09:30-10:00,933,0.3386923901393355,0.42015005359056806,0.0,0.24115755627009647,8.420886075949367,3.0,10.637755102040817,3.0
-0.382,10:00-11:00,367,0.46866485013623976,0.5068119891008175,0.0,0.02452316076294278,14.581395348837209,7.5,16.887096774193548,9.0
-0.382,11:00-12:00,192,0.5260416666666666,0.4739583333333333,0.0,0.0,27.178217821782177,12.0,24.923076923076923,18.0
-0.382,12:00-13:00,109,0.47706422018348627,0.5045871559633027,0.0,0.01834862385321101,21.807692307692307,10.5,40.74545454545454,30.0
-0.382,13:00-14:00,101,0.39603960396039606,0.5643564356435643,0.0,0.039603960396039604,19.425,15.0,26.105263157894736,21.0
-0.382,14:00-15:00,119,0.47058823529411764,0.4957983193277311,0.025210084033613446,0.008403361344537815,14.25,7.5,21.25423728813559,12.0
-0.382,15:00-16:00,118,0.4830508474576271,0.2711864406779661,0.23728813559322035,0.00847457627118644,11.105263157894736,9.0,11.34375,6.0
-0.236,09:30-10:00,1231,0.6929325751421609,0.2778229082047116,0.007311129163281885,0.021933387489845652,15.910902696365769,3.0,47.55263157894737,27.0
-0.236,10:00-11:00,415,0.6168674698795181,0.3566265060240964,0.021686746987951807,0.004819277108433735,36.0,15.0,48.527027027027025,33.0
-0.236,11:00-12:00,193,0.6113989637305699,0.35751295336787564,0.02072538860103627,0.010362694300518135,37.601694915254235,18.0,80.47826086956522,60.0
-0.236,12:00-13:00,96,0.5729166666666666,0.3958333333333333,0.03125,0.0,47.78181818181818,24.0,80.52631578947368,70.5
-0.236,13:00-14:00,97,0.5773195876288659,0.35051546391752575,0.061855670103092786,0.010309278350515464,35.30357142857143,19.5,55.411764705882355,40.5
-0.236,14:00-15:00,114,0.5087719298245614,0.35964912280701755,0.12280701754385964,0.008771929824561403,23.275862068965516,18.0,29.926829268292682,27.0
-0.236,15:00-16:00,96,0.4270833333333333,0.13541666666666666,0.4375,0.0,14.560975609756097,9.0,11.307692307692308,12.0
+0.236,09:30-10:00,1378,0.6894049346879536,0.27503628447024675,0.007982583454281567,0.027576197387518143,19.705263157894738,3.0,42.72031662269129,24.0
+0.236,10:00-11:00,359,0.532033426183844,0.4373259052924791,0.022284122562674095,0.008356545961002786,54.64397905759162,24.0,61.43312101910828,42.0
+0.236,11:00-12:00,168,0.5892857142857143,0.34523809523809523,0.05952380952380952,0.005952380952380952,57.15151515151515,36.0,97.55172413793103,94.5
+0.236,12:00-13:00,80,0.5125,0.35,0.1375,0.0,62.926829268292686,48.0,81.64285714285714,75.0
+0.236,13:00-14:00,88,0.5340909090909091,0.2727272727272727,0.19318181818181818,0.0,59.93617021276596,42.0,72.75,60.0
+0.236,14:00-15:00,126,0.3968253968253968,0.3412698412698413,0.23809523809523808,0.023809523809523808,30.18,22.5,28.6046511627907,18.0
+0.236,15:00-16:00,107,0.2523364485981308,0.12149532710280374,0.6261682242990654,0.0,14.666666666666666,12.0,21.923076923076923,15.0
+0.382,09:30-10:00,1087,0.40386384544618215,0.38546458141674333,0.0,0.21067157313707452,13.879271070615035,6.0,13.238663484486873,0.0
+0.382,10:00-11:00,328,0.573170731707317,0.40853658536585363,0.003048780487804878,0.01524390243902439,40.1968085106383,21.0,34.97014925373134,18.0
+0.382,11:00-12:00,180,0.6388888888888888,0.35555555555555557,0.005555555555555556,0.0,55.12173913043478,27.0,49.171875,40.5
+0.382,12:00-13:00,111,0.5405405405405406,0.38738738738738737,0.06306306306306306,0.009009009009009009,52.25,21.0,48.906976744186046,30.0
+0.382,13:00-14:00,89,0.5617977528089888,0.39325842696629215,0.0449438202247191,0.0,48.06,31.5,49.714285714285715,36.0
+0.382,14:00-15:00,119,0.47058823529411764,0.3865546218487395,0.08403361344537816,0.058823529411764705,35.410714285714285,27.0,16.304347826086957,12.0
+0.382,15:00-16:00,115,0.24347826086956523,0.23478260869565218,0.5217391304347826,0.0,18.214285714285715,13.5,13.444444444444445,12.0
+0.50,09:30-10:00,831,0.32250300842358604,0.44885679903730447,0.0,0.2286401925391095,10.902985074626866,6.0,7.986595174262734,0.0
+0.50,10:00-11:00,277,0.516245487364621,0.4729241877256318,0.0,0.010830324909747292,41.45454545454545,21.0,22.30534351145038,12.0
+0.50,11:00-12:00,173,0.5491329479768786,0.4277456647398844,0.017341040462427744,0.005780346820809248,44.43157894736842,21.0,45.689189189189186,30.0
+0.50,12:00-13:00,113,0.5486725663716814,0.415929203539823,0.008849557522123894,0.02654867256637168,46.935483870967744,24.0,62.48936170212766,51.0
+0.50,13:00-14:00,86,0.5697674418604651,0.4069767441860465,0.023255813953488372,0.0,37.04081632653061,24.0,35.22857142857143,24.0
+0.50,14:00-15:00,104,0.40384615384615385,0.49038461538461536,0.057692307692307696,0.04807692307692308,35.92857142857143,34.5,16.764705882352942,9.0
+0.50,15:00-16:00,137,0.3284671532846715,0.2773722627737226,0.38686131386861317,0.0072992700729927005,14.0,12.0,11.131578947368421,6.0
+0.618,09:30-10:00,603,0.3034825870646766,0.5555555555555556,0.0,0.14096185737976782,24.16393442622951,12.0,7.002985074626865,0.0
+0.618,10:00-11:00,243,0.5102880658436214,0.48148148148148145,0.0,0.00823045267489712,50.975806451612904,30.0,44.51282051282051,24.0
+0.618,11:00-12:00,152,0.46710526315789475,0.5131578947368421,0.019736842105263157,0.0,51.67605633802817,27.0,56.73076923076923,27.0
+0.618,12:00-13:00,105,0.37142857142857144,0.5428571428571428,0.0761904761904762,0.009523809523809525,70.46153846153847,60.0,57.473684210526315,48.0
+0.618,13:00-14:00,81,0.3950617283950617,0.4691358024691358,0.12345679012345678,0.012345679012345678,71.34375,70.5,50.68421052631579,36.0
+0.618,14:00-15:00,103,0.27184466019417475,0.5631067961165048,0.1553398058252427,0.009708737864077669,36.0,31.5,18.724137931034484,9.0
+0.618,15:00-16:00,144,0.18055555555555555,0.2916666666666667,0.5277777777777778,0.0,17.192307692307693,15.0,14.928571428571429,12.0
+0.786,09:30-10:00,336,0.3898809523809524,0.5148809523809523,0.0,0.09523809523809523,37.58015267175573,21.0,18.728323699421967,3.0
+0.786,10:00-11:00,224,0.5401785714285714,0.41517857142857145,0.03571428571428571,0.008928571428571428,81.96694214876032,60.0,55.61290322580645,30.0
+0.786,11:00-12:00,118,0.576271186440678,0.3559322033898305,0.06779661016949153,0.0,104.91176470588235,84.0,92.35714285714286,67.5
+0.786,12:00-13:00,90,0.5444444444444444,0.34444444444444444,0.1111111111111111,0.0,96.12244897959184,105.0,75.29032258064517,75.0
+0.786,13:00-14:00,57,0.3508771929824561,0.5087719298245614,0.12280701754385964,0.017543859649122806,61.95,58.5,64.86206896551724,63.0
+0.786,14:00-15:00,82,0.4024390243902439,0.3170731707317073,0.2804878048780488,0.0,41.72727272727273,39.0,35.42307692307692,30.0
+0.786,15:00-16:00,121,0.1652892561983471,0.18181818181818182,0.6528925619834711,0.0,21.0,18.0,18.136363636363637,13.5
+1.00,09:30-10:00,144,0.4236111111111111,0.4861111111111111,0.034722222222222224,0.05555555555555555,44.85245901639344,21.0,23.185714285714287,0.0
+1.00,10:00-11:00,138,0.5362318840579711,0.3695652173913043,0.07971014492753623,0.014492753623188406,94.58108108108108,81.0,76.0,42.0
+1.00,11:00-12:00,86,0.46511627906976744,0.37209302325581395,0.16279069767441862,0.0,113.7,109.5,115.3125,94.5
+1.00,12:00-13:00,65,0.5230769230769231,0.26153846153846155,0.2153846153846154,0.0,97.76470588235294,75.0,121.76470588235294,114.0
+1.00,13:00-14:00,58,0.5172413793103449,0.1724137931034483,0.29310344827586204,0.017241379310344827,91.4,88.5,66.9,66.0
+1.00,14:00-15:00,75,0.22666666666666666,0.3333333333333333,0.44,0.0,40.76470588235294,42.0,51.6,54.0
+1.00,15:00-16:00,96,0.16666666666666666,0.13541666666666666,0.6979166666666666,0.0,18.75,18.0,17.76923076923077,15.0
+1.236,09:30-10:00,60,0.5666666666666667,0.36666666666666664,0.0,0.06666666666666667,29.11764705882353,15.0,15.954545454545455,13.5
+1.236,10:00-11:00,59,0.6101694915254238,0.3389830508474576,0.01694915254237288,0.03389830508474576,67.08333333333333,30.0,90.75,58.5
+1.236,11:00-12:00,42,0.6904761904761905,0.2619047619047619,0.047619047619047616,0.0,84.0,78.0,101.18181818181819,84.0
+1.236,12:00-13:00,43,0.4418604651162791,0.4186046511627907,0.13953488372093023,0.0,93.63157894736842,111.0,78.83333333333333,81.0
+1.236,13:00-14:00,44,0.6136363636363636,0.20454545454545456,0.18181818181818182,0.0,61.666666666666664,63.0,78.33333333333333,69.0
+1.236,14:00-15:00,46,0.4782608695652174,0.17391304347826086,0.34782608695652173,0.0,30.545454545454547,33.0,40.125,37.5
+1.236,15:00-16:00,73,0.2876712328767123,0.0958904109589041,0.6164383561643836,0.0,12.571428571428571,12.0,15.0,9.0
+1.382,09:30-10:00,30,0.4666666666666667,0.4,0.0,0.13333333333333333,13.714285714285714,6.0,6.25,3.0
+1.382,10:00-11:00,38,0.47368421052631576,0.5,0.0,0.02631578947368421,49.666666666666664,33.0,26.526315789473685,21.0
+1.382,11:00-12:00,30,0.6666666666666666,0.3,0.0,0.03333333333333333,49.35,49.5,39.666666666666664,21.0
+1.382,12:00-13:00,19,0.3684210526315789,0.5789473684210527,0.0,0.05263157894736842,66.0,48.0,70.63636363636364,69.0
+1.382,13:00-14:00,23,0.5217391304347826,0.30434782608695654,0.13043478260869565,0.043478260869565216,44.5,39.0,22.714285714285715,15.0
+1.382,14:00-15:00,39,0.6666666666666666,0.20512820512820512,0.07692307692307693,0.05128205128205128,21.23076923076923,19.5,20.625,21.0
+1.382,15:00-16:00,58,0.3620689655172414,0.25862068965517243,0.3793103448275862,0.0,12.857142857142858,9.0,14.0,9.0
+1.50,09:30-10:00,21,0.38095238095238093,0.42857142857142855,0.0,0.19047619047619047,10.5,7.5,22.0,0.0
+1.50,10:00-11:00,18,0.5555555555555556,0.4444444444444444,0.0,0.0,35.1,19.5,7.875,4.5
+1.50,11:00-12:00,17,0.4117647058823529,0.5294117647058824,0.0,0.058823529411764705,30.428571428571427,15.0,29.0,12.0
+1.50,12:00-13:00,16,0.4375,0.5,0.0,0.0625,24.428571428571427,24.0,28.5,18.0
+1.50,13:00-14:00,17,0.4117647058823529,0.47058823529411764,0.058823529411764705,0.058823529411764705,45.0,18.0,40.5,42.0
+1.50,14:00-15:00,28,0.5714285714285714,0.35714285714285715,0.07142857142857142,0.0,29.25,31.5,15.9,6.0
+1.50,15:00-16:00,47,0.425531914893617,0.3404255319148936,0.23404255319148937,0.0,12.0,7.5,10.5,9.0
+1.618,09:30-10:00,13,0.38461538461538464,0.46153846153846156,0.0,0.15384615384615385,12.6,3.0,5.0,0.0
+1.618,10:00-11:00,14,0.42857142857142855,0.5714285714285714,0.0,0.0,77.5,45.0,26.25,9.0
+1.618,11:00-12:00,11,0.45454545454545453,0.5454545454545454,0.0,0.0,19.2,24.0,50.0,7.5
+1.618,12:00-13:00,10,0.5,0.5,0.0,0.0,38.4,27.0,22.2,0.0
+1.618,13:00-14:00,9,0.1111111111111111,0.8888888888888888,0.0,0.0,81.0,81.0,25.125,10.5
+1.618,14:00-15:00,19,0.5263157894736842,0.3684210526315789,0.05263157894736842,0.05263157894736842,25.5,19.5,33.42857142857143,27.0
+1.618,15:00-16:00,42,0.4523809523809524,0.35714285714285715,0.19047619047619047,0.0,12.0,9.0,8.8,6.0
+1.786,09:30-10:00,7,0.42857142857142855,0.2857142857142857,0.0,0.2857142857142857,57.0,54.0,0.0,0.0
+1.786,10:00-11:00,6,0.5,0.5,0.0,0.0,48.0,66.0,136.0,162.0
+1.786,11:00-12:00,6,0.3333333333333333,0.6666666666666666,0.0,0.0,126.0,126.0,69.75,73.5
+1.786,12:00-13:00,8,0.375,0.5,0.125,0.0,63.0,42.0,77.25,78.0
+1.786,13:00-14:00,3,0.3333333333333333,0.3333333333333333,0.0,0.3333333333333333,117.0,117.0,33.0,33.0
+1.786,14:00-15:00,11,0.18181818181818182,0.6363636363636364,0.18181818181818182,0.0,15.0,15.0,22.285714285714285,21.0
+1.786,15:00-16:00,29,0.1724137931034483,0.3103448275862069,0.4827586206896552,0.034482758620689655,12.6,9.0,15.0,15.0
+2.00,09:30-10:00,4,0.25,0.75,0.0,0.0,6.0,6.0,15.0,0.0
+2.00,10:00-11:00,4,0.5,0.5,0.0,0.0,25.5,25.5,58.5,58.5
+2.00,11:00-12:00,3,0.6666666666666666,0.3333333333333333,0.0,0.0,73.5,73.5,177.0,177.0
+2.00,12:00-13:00,2,0.5,0.5,0.0,0.0,9.0,9.0,6.0,6.0
+2.00,13:00-14:00,2,0.0,1.0,0.0,0.0,,,49.5,49.5
+2.00,14:00-15:00,3,0.3333333333333333,0.3333333333333333,0.3333333333333333,0.0,3.0,3.0,24.0,24.0
+2.00,15:00-16:00,13,0.07692307692307693,0.46153846153846156,0.46153846153846156,0.0,9.0,9.0,12.0,7.5
