level,hour_bucket,n,p_beyond,p_behind,p_last,p_ambig,avg_min_to_beyond,med_min_to_beyond,avg_min_to_behind,med_min_to_behind
-2.00,ALL,123,0.3170731707317073,0.6097560975609756,0.04878048780487805,0.024390243902439025,13.846153846153847,9.0,11.16,6.0
-1.786,ALL,208,0.2980769230769231,0.6394230769230769,0.04326923076923077,0.019230769230769232,20.419354838709676,9.0,8.75187969924812,3.0
-1.618,ALL,290,0.2206896551724138,0.6896551724137931,0.041379310344827586,0.04827586206896552,9.703125,3.0,4.47,0.0
-1.50,ALL,361,0.29916897506925205,0.6094182825484764,0.01662049861495845,0.07479224376731301,7.555555555555555,3.0,3.9954545454545456,0.0
-1.382,ALL,460,0.41304347826086957,0.5108695652173914,0.02826086956521739,0.04782608695652174,10.563157894736841,6.0,6.051063829787234,0.0
-1.236,ALL,637,0.5007849293563579,0.3893249607535322,0.08791208791208792,0.02197802197802198,18.780564263322884,6.0,24.120967741935484,12.0
-1.00,ALL,1057,0.4153263954588458,0.45695364238410596,0.11352885525070956,0.014191106906338695,34.804100227790435,18.0,28.888198757763973,15.0
-0.786,ALL,1580,0.41455696202531644,0.5151898734177215,0.05506329113924051,0.015189873417721518,24.39389312977099,12.0,22.691646191646193,12.0
-0.618,ALL,2116,0.3672022684310019,0.5916824196597353,0.01984877126654064,0.021266540642722116,13.328185328185327,6.0,9.711661341853036,0.0
-0.50,ALL,2576,0.4472049689440994,0.5089285714285714,0.010093167701863354,0.03377329192546584,7.502604166666667,3.0,7.913043478260869,0.0
-0.382,ALL,3231,0.5450324976787372,0.4175177963478799,0.013927576601671309,0.023522129371711543,8.81771720613288,3.0,14.108228317272053,6.0
-0.236,ALL,4090,0.6669926650366749,0.30073349633251834,0.02371638141809291,0.008557457212713936,17.103739002932553,3.0,44.17560975609756,27.0
+0.236,ALL,4400,0.68,0.27,0.04340909090909091,0.006590909090909091,20.31417112299465,3.0,45.68939393939394,27.0
+0.382,ALL,3454,0.5906195715112913,0.36537348002316156,0.028662420382165606,0.015344528083381586,15.18235294117647,3.0,20.491283676703645,9.0
+0.50,ALL,2745,0.507832422586521,0.44371584699453553,0.023679417122040074,0.02477231329690346,16.56025824964132,3.0,15.177339901477833,6.0
+0.618,ALL,2165,0.4106235565819861,0.5214780600461894,0.04988452655889145,0.018013856812933025,27.020247469066366,12.0,21.140832595217006,9.0
+0.786,ALL,1492,0.42828418230563003,0.4517426273458445,0.11058981233243968,0.00938337801608579,55.25352112676056,33.0,38.86646884272997,18.0
+1.00,ALL,908,0.42400881057268724,0.3535242290748899,0.20814977973568283,0.014317180616740088,67.07532467532468,42.0,61.89719626168224,42.0
+1.236,ALL,488,0.514344262295082,0.26434426229508196,0.19262295081967212,0.028688524590163935,45.537848605577686,27.0,55.76744186046512,36.0
+1.382,ALL,311,0.42765273311897106,0.4180064308681672,0.10289389067524116,0.05144694533762058,23.481203007518797,12.0,26.79230769230769,15.0
+1.50,ALL,205,0.32195121951219513,0.5560975609756098,0.07317073170731707,0.04878048780487805,19.772727272727273,9.0,17.473684210526315,7.5
+1.618,ALL,139,0.28776978417266186,0.539568345323741,0.1223021582733813,0.050359712230215826,24.225,15.0,18.96,3.0
+1.786,ALL,79,0.25316455696202533,0.45569620253164556,0.189873417721519,0.10126582278481013,24.9,12.0,38.666666666666664,12.0
+2.00,ALL,38,0.2631578947368421,0.5526315789473685,0.13157894736842105,0.05263157894736842,39.3,6.0,25.285714285714285,6.0
-2.00,09:30-10:00,22,0.6818181818181818,0.2727272727272727,0.0,0.045454545454545456,4.6,0.0,6.0,7.5
-2.00,10:00-11:00,9,0.3333333333333333,0.6666666666666666,0.0,0.0,16.0,12.0,11.0,6.0
-2.00,11:00-12:00,15,0.13333333333333333,0.8666666666666667,0.0,0.0,15.0,15.0,9.461538461538462,6.0
-2.00,12:00-13:00,14,0.21428571428571427,0.7857142857142857,0.0,0.0,23.0,9.0,5.454545454545454,0.0
-2.00,13:00-14:00,13,0.38461538461538464,0.5384615384615384,0.0,0.07692307692307693,22.8,9.0,24.428571428571427,9.0
-2.00,14:00-15:00,26,0.3076923076923077,0.6538461538461539,0.0,0.038461538461538464,22.5,22.5,15.176470588235293,15.0
-2.00,15:00-16:00,24,0.125,0.625,0.25,0.0,10.0,3.0,8.2,3.0
-1.786,09:30-10:00,35,0.4857142857142857,0.4857142857142857,0.0,0.02857142857142857,3.8823529411764706,0.0,2.6470588235294117,0.0
-1.786,10:00-11:00,29,0.27586206896551724,0.7241379310344828,0.0,0.0,35.625,6.0,5.571428571428571,3.0
-1.786,11:00-12:00,24,0.375,0.5833333333333334,0.0,0.041666666666666664,38.666666666666664,12.0,10.5,0.0
-1.786,12:00-13:00,20,0.3,0.65,0.0,0.05,38.5,16.5,13.153846153846153,6.0
-1.786,13:00-14:00,20,0.2,0.75,0.0,0.05,18.75,15.0,12.4,6.0
-1.786,14:00-15:00,39,0.2564102564102564,0.7435897435897436,0.0,0.0,15.3,10.5,12.413793103448276,6.0
-1.786,15:00-16:00,41,0.1951219512195122,0.5853658536585366,0.21951219512195122,0.0,13.5,13.5,5.75,0.0
-1.618,09:30-10:00,52,0.46153846153846156,0.40384615384615385,0.0,0.1346153846153846,0.25,0.0,0.5714285714285714,0.0
-1.618,10:00-11:00,37,0.10810810810810811,0.8378378378378378,0.0,0.05405405405405406,11.25,12.0,2.032258064516129,0.0
-1.618,11:00-12:00,33,0.09090909090909091,0.8787878787878788,0.0,0.030303030303030304,32.0,0.0,1.8620689655172413,0.0
-1.618,12:00-13:00,28,0.35714285714285715,0.6428571428571429,0.0,0.0,15.6,7.5,6.333333333333333,0.0
-1.618,13:00-14:00,35,0.14285714285714285,0.8,0.0,0.05714285714285714,34.8,18.0,8.464285714285714,1.5
-1.618,14:00-15:00,48,0.20833333333333334,0.7291666666666666,0.020833333333333332,0.041666666666666664,6.9,6.0,7.457142857142857,3.0
-1.618,15:00-16:00,57,0.14035087719298245,0.6666666666666666,0.19298245614035087,0.0,9.375,6.0,4.026315789473684,0.0
-1.50,09:30-10:00,64,0.484375,0.375,0.0,0.140625,0.4838709677419355,0.0,1.0,0.0
-1.50,10:00-11:00,58,0.22413793103448276,0.6724137931034483,0.0,0.10344827586206896,3.6923076923076925,3.0,3.6923076923076925,0.0
-1.50,11:00-12:00,44,0.20454545454545456,0.6590909090909091,0.0,0.13636363636363635,12.333333333333334,6.0,3.7241379310344827,0.0
-1.50,12:00-13:00,33,0.21212121212121213,0.7575757575757576,0.0,0.030303030303030304,9.0,3.0,5.16,0.0
-1.50,13:00-14:00,43,0.37209302325581395,0.5813953488372093,0.0,0.046511627906976744,16.875,12.0,6.24,0.0
-1.50,14:00-15:00,52,0.3269230769230769,0.6346153846153846,0.0,0.038461538461538464,12.176470588235293,9.0,5.818181818181818,0.0
-1.50,15:00-16:00,67,0.22388059701492538,0.6716417910447762,0.08955223880597014,0.014925373134328358,6.8,6.0,2.8,0.0
-1.382,09:30-10:00,87,0.5632183908045977,0.3333333333333333,0.0,0.10344827586206896,1.7755102040816326,0.0,1.9655172413793103,0.0
-1.382,10:00-11:00,74,0.32432432432432434,0.6351351351351351,0.0,0.04054054054054054,7.375,6.0,4.851063829787234,0.0
-1.382,11:00-12:00,60,0.38333333333333336,0.55,0.0,0.06666666666666667,14.478260869565217,9.0,7.090909090909091,0.0
-1.382,12:00-13:00,39,0.5128205128205128,0.48717948717948717,0.0,0.0,17.1,15.0,8.210526315789474,0.0
-1.382,13:00-14:00,58,0.39655172413793105,0.603448275862069,0.0,0.0,17.47826086956522,12.0,11.82857142857143,6.0
-1.382,14:00-15:00,54,0.46296296296296297,0.5,0.0,0.037037037037037035,17.76,15.0,6.666666666666667,3.0
-1.382,15:00-16:00,88,0.29545454545454547,0.5113636363636364,0.14772727272727273,0.045454545454545456,8.538461538461538,6.0,3.4,0.0
-1.236,09:30-10:00,134,0.6492537313432836,0.3283582089552239,0.0,0.022388059701492536,4.0,0.0,9.613636363636363,6.0
-1.236,10:00-11:00,111,0.5315315315315315,0.45045045045045046,0.0,0.018018018018018018,25.220338983050848,9.0,23.64,18.0
-1.236,11:00-12:00,90,0.3888888888888889,0.5555555555555556,0.022222222222222223,0.03333333333333333,31.285714285714285,15.0,46.86,22.5
-1.236,12:00-13:00,53,0.5849056603773585,0.41509433962264153,0.0,0.0,37.54838709677419,27.0,25.363636363636363,19.5
-1.236,13:00-14:00,61,0.5409836065573771,0.4262295081967213,0.03278688524590164,0.0,23.09090909090909,15.0,22.384615384615383,12.0
-1.236,14:00-15:00,62,0.4838709677419355,0.3387096774193548,0.0967741935483871,0.08064516129032258,22.6,16.5,20.571428571428573,15.0
-1.236,15:00-16:00,126,0.3492063492063492,0.2777777777777778,0.36507936507936506,0.007936507936507936,10.363636363636363,6.0,13.2,12.0
-1.00,09:30-10:00,265,0.5924528301886792,0.4037735849056604,0.0,0.0037735849056603774,13.127388535031848,3.0,20.49532710280374,6.0
-1.00,10:00-11:00,173,0.4508670520231214,0.5260115606936416,0.0,0.023121387283236993,49.19230769230769,34.5,35.53846153846154,18.0
-1.00,11:00-12:00,135,0.4740740740740741,0.5037037037037037,0.0,0.022222222222222223,56.953125,36.0,33.35294117647059,16.5
-1.00,12:00-13:00,96,0.34375,0.6354166666666666,0.010416666666666666,0.010416666666666666,63.72727272727273,45.0,46.721311475409834,24.0
-1.00,13:00-14:00,96,0.3854166666666667,0.5416666666666666,0.052083333333333336,0.020833333333333332,49.13513513513514,36.0,29.25,16.5
-1.00,14:00-15:00,102,0.30392156862745096,0.5490196078431373,0.12745098039215685,0.0196078431372549,38.12903225806452,33.0,24.75,21.0
-1.00,15:00-16:00,190,0.20526315789473684,0.25263157894736843,0.531578947368421,0.010526315789473684,16.23076923076923,12.0,10.4375,7.5
-0.786,09:30-10:00,473,0.6004228329809725,0.38477801268498946,0.0,0.014799154334038054,9.306338028169014,0.0,13.747252747252746,6.0
-0.786,10:00-11:00,315,0.3523809523809524,0.6349206349206349,0.0,0.012698412698412698,37.027027027027025,18.0,32.835,12.0
-0.786,11:00-12:00,193,0.3471502590673575,0.6321243523316062,0.0,0.02072538860103627,44.507462686567166,24.0,23.28688524590164,18.0
-0.786,12:00-13:00,128,0.3671875,0.609375,0.0234375,0.0,43.340425531914896,27.0,30.076923076923077,15.0
-0.786,13:00-14:00,112,0.29464285714285715,0.6339285714285714,0.044642857142857144,0.026785714285714284,37.0,24.0,25.35211267605634,15.0
-0.786,14:00-15:00,159,0.37735849056603776,0.559748427672956,0.0440251572327044,0.018867924528301886,35.4,34.5,19.752808988764045,15.0
-0.786,15:00-16:00,200,0.265,0.36,0.36,0.015,16.245283018867923,12.0,9.125,6.0
-0.618,09:30-10:00,795,0.5333333333333333,0.45031446540880504,0.0,0.016352201257861635,5.03066037735849,0.0,7.164804469273743,1.5
-0.618,10:00-11:00,423,0.25059101654846333,0.7304964539007093,0.0,0.018912529550827423,19.132075471698112,12.0,9.174757281553399,0.0
-0.618,11:00-12:00,231,0.2943722943722944,0.6796536796536796,0.0,0.025974025974025976,36.0,18.0,12.32484076433121,3.0
-0.618,12:00-13:00,130,0.2846153846153846,0.7,0.0,0.015384615384615385,29.756756756756758,18.0,16.318681318681318,6.0
-0.618,13:00-14:00,157,0.28662420382165604,0.6815286624203821,0.0,0.03184713375796178,23.133333333333333,18.0,15.14018691588785,6.0
-0.618,14:00-15:00,181,0.26519337016574585,0.6850828729281768,0.011049723756906077,0.03867403314917127,20.4375,15.0,8.975806451612904,3.0
-0.618,15:00-16:00,199,0.24623115577889448,0.5326633165829145,0.20100502512562815,0.020100502512562814,12.73469387755102,9.0,5.716981132075472,0.0
-0.50,09:30-10:00,1124,0.6218861209964412,0.3540925266903915,0.0,0.02402135231316726,2.7167381974248928,0.0,4.432160804020101,0.0
-0.50,10:00-11:00,524,0.29389312977099236,0.6603053435114504,0.0,0.04580152671755725,14.2012987012987,6.0,6.789017341040463,0.0
-0.50,11:00-12:00,234,0.3547008547008547,0.6111111111111112,0.0,0.03418803418803419,16.265060240963855,9.0,12.398601398601398,3.0
-0.50,12:00-13:00,151,0.25165562913907286,0.7152317880794702,0.0,0.033112582781456956,20.13157894736842,12.0,17.166666666666668,6.0
-0.50,13:00-14:00,153,0.3790849673202614,0.5816993464052288,0.0,0.0392156862745098,18.20689655172414,10.5,14.764044943820224,6.0
-0.50,14:00-15:00,190,0.30526315789473685,0.6368421052631579,0.0,0.05789473684210526,12.827586206896552,9.0,6.471074380165289,0.0
-0.50,15:00-16:00,200,0.31,0.53,0.13,0.03,10.35483870967742,9.0,5.066037735849057,0.0
-0.382,09:30-10:00,1646,0.681044957472661,0.30498177399756987,0.0,0.013973268529769137,4.185548617305977,0.0,10.595617529880478,6.0
-0.382,10:00-11:00,606,0.39933993399339934,0.5627062706270627,0.0,0.037953795379537955,16.487603305785125,9.0,13.134897360703812,6.0
-0.382,11:00-12:00,281,0.45195729537366547,0.5480427046263345,0.0,0.0,20.007874015748033,12.0,21.33116883116883,12.0
-0.382,12:00-13:00,153,0.38562091503267976,0.6013071895424836,0.0,0.013071895424836602,19.677966101694917,9.0,25.01086956521739,16.5
-0.382,13:00-14:00,147,0.41496598639455784,0.5238095238095238,0.0,0.061224489795918366,21.0,18.0,19.83116883116883,9.0
-0.382,14:00-15:00,191,0.39790575916230364,0.5287958115183246,0.005235602094240838,0.06806282722513089,14.56578947368421,9.0,12.831683168316832,6.0
-0.382,15:00-16:00,207,0.36231884057971014,0.3961352657004831,0.21256038647342995,0.028985507246376812,10.08,9.0,10.060975609756097,6.0
-0.236,09:30-10:00,2502,0.7617905675459632,0.2322142286171063,0.002797761790567546,0.0031974420463629096,10.641657922350472,0.0,39.51635111876076,24.0
-0.236,10:00-11:00,687,0.5254730713245997,0.4483260553129549,0.013100436681222707,0.013100436681222707,32.0775623268698,15.0,47.396103896103895,27.0
-0.236,11:00-12:00,285,0.5649122807017544,0.4,0.014035087719298246,0.021052631578947368,36.67080745341615,18.0,60.44736842105263,43.5
-0.236,12:00-13:00,156,0.5,0.47435897435897434,0.019230769230769232,0.00641025641025641,44.73076923076923,28.5,65.75675675675676,51.0
-0.236,13:00-14:00,148,0.5405405405405406,0.3783783783783784,0.05405405405405406,0.02702702702702703,33.0375,16.5,53.517857142857146,51.0
-0.236,14:00-15:00,173,0.45664739884393063,0.41040462427745666,0.10404624277456648,0.028901734104046242,24.379746835443036,18.0,23.028169014084508,15.0
-0.236,15:00-16:00,139,0.45323741007194246,0.18705035971223022,0.34532374100719426,0.014388489208633094,13.238095238095237,9.0,15.0,12.0
+0.236,09:30-10:00,2939,0.7781558353181354,0.21571963252807078,0.00374276964954066,0.0023817625042531474,12.083952776563184,0.0,36.80441640378549,21.0
+0.236,10:00-11:00,592,0.5236486486486487,0.4527027027027027,0.008445945945945946,0.015202702702702704,47.535483870967745,21.0,55.1865671641791,33.0
+0.236,11:00-12:00,233,0.5579399141630901,0.38197424892703863,0.055793991416309016,0.004291845493562232,59.03076923076923,39.0,80.8314606741573,63.0
+0.236,12:00-13:00,141,0.49645390070921985,0.375886524822695,0.11347517730496454,0.014184397163120567,67.02857142857142,49.5,62.094339622641506,54.0
+0.236,13:00-14:00,142,0.5,0.3732394366197183,0.11267605633802817,0.014084507042253521,46.140845070422536,27.0,64.41509433962264,57.0
+0.236,14:00-15:00,195,0.4256410256410256,0.358974358974359,0.17435897435897435,0.041025641025641026,24.97590361445783,21.0,27.3,22.5
+0.236,15:00-16:00,158,0.25949367088607594,0.13291139240506328,0.6075949367088608,0.0,16.902439024390244,15.0,16.428571428571427,12.0
+0.382,09:30-10:00,1944,0.706275720164609,0.2875514403292181,0.0,0.006172839506172839,6.150764748725419,0.0,14.720930232558139,9.0
+0.382,10:00-11:00,568,0.4137323943661972,0.5492957746478874,0.0035211267605633804,0.03345070422535211,27.293617021276596,12.0,20.25,9.0
+0.382,11:00-12:00,252,0.5952380952380952,0.3888888888888889,0.0,0.015873015873015872,46.44,21.0,39.673469387755105,30.0
+0.382,12:00-13:00,162,0.5,0.4382716049382716,0.037037037037037035,0.024691358024691357,44.44444444444444,24.0,43.859154929577464,30.0
+0.382,13:00-14:00,126,0.5317460317460317,0.3968253968253968,0.05555555555555555,0.015873015873015872,41.1044776119403,30.0,37.8,27.0
+0.382,14:00-15:00,226,0.38495575221238937,0.5176991150442478,0.048672566371681415,0.048672566371681415,24.344827586206897,18.0,13.717948717948717,3.0
+0.382,15:00-16:00,176,0.26704545454545453,0.3125,0.4147727272727273,0.005681818181818182,14.361702127659575,9.0,14.836363636363636,12.0
+0.50,09:30-10:00,1303,0.6369915579432079,0.3484267075978511,0.0,0.014581734458940905,5.103614457831325,0.0,9.3568281938326,3.0
+0.50,10:00-11:00,486,0.39094650205761317,0.5720164609053497,0.0,0.037037037037037035,35.257894736842104,18.0,14.93525179856115,3.0
+0.50,11:00-12:00,268,0.48134328358208955,0.5,0.0037313432835820895,0.014925373134328358,40.81395348837209,21.0,27.246268656716417,15.0
+0.50,12:00-13:00,166,0.463855421686747,0.5120481927710844,0.006024096385542169,0.018072289156626505,38.18181818181818,21.0,37.65882352941176,18.0
+0.50,13:00-14:00,118,0.4322033898305085,0.5423728813559322,0.01694915254237288,0.00847457627118644,31.0,15.0,18.09375,10.5
+0.50,14:00-15:00,204,0.3333333333333333,0.5392156862745098,0.024509803921568627,0.10294117647058823,25.41176470588235,21.0,11.836363636363636,9.0
+0.50,15:00-16:00,200,0.245,0.465,0.28,0.01,12.979591836734693,12.0,8.32258064516129,3.0
+0.618,09:30-10:00,862,0.5661252900232019,0.4176334106728538,0.0,0.016241299303944315,11.182377049180328,3.0,11.908333333333333,3.0
+0.618,10:00-11:00,410,0.3073170731707317,0.6707317073170732,0.0,0.02195121951219512,41.30952380952381,27.0,24.643636363636364,6.0
+0.618,11:00-12:00,217,0.391705069124424,0.5944700460829493,0.009216589861751152,0.004608294930875576,56.470588235294116,42.0,33.2093023255814,12.0
+0.618,12:00-13:00,154,0.33766233766233766,0.6103896103896104,0.03896103896103896,0.012987012987012988,57.05769230769231,39.0,38.265957446808514,25.5
+0.618,13:00-14:00,128,0.34375,0.5703125,0.0625,0.0234375,64.0909090909091,63.0,28.602739726027398,21.0
+0.618,14:00-15:00,184,0.32065217391304346,0.5706521739130435,0.06521739130434782,0.043478260869565216,36.96610169491525,33.0,17.114285714285714,9.0
+0.618,15:00-16:00,210,0.16666666666666666,0.44285714285714284,0.38095238095238093,0.009523809523809525,16.885714285714286,12.0,11.161290322580646,6.0
+0.786,09:30-10:00,446,0.5717488789237668,0.42152466367713004,0.0,0.006726457399103139,23.50588235294118,9.0,26.45744680851064,12.0
+0.786,10:00-11:00,322,0.43478260869565216,0.5496894409937888,0.009316770186335404,0.006211180124223602,80.67857142857143,55.5,41.13559322033898,18.0
+0.786,11:00-12:00,173,0.5433526011560693,0.4046242774566474,0.05202312138728324,0.0,96.57446808510639,88.5,67.58571428571429,40.5
+0.786,12:00-13:00,124,0.3709677419354839,0.5161290322580645,0.10483870967741936,0.008064516129032258,95.28260869565217,100.5,62.25,51.0
+0.786,13:00-14:00,100,0.4,0.47,0.1,0.03,61.275,60.0,50.93617021276596,39.0
+0.786,14:00-15:00,139,0.2733812949640288,0.5539568345323741,0.1366906474820144,0.03597122302158273,41.60526315789474,36.0,25.558441558441558,21.0
+0.786,15:00-16:00,188,0.13829787234042554,0.2712765957446808,0.5904255319148937,0.0,20.192307692307693,18.0,16.941176470588236,12.0
+1.00,09:30-10:00,180,0.6388888888888888,0.3277777777777778,0.022222222222222223,0.011111111111111112,28.330434782608695,9.0,39.91525423728814,24.0
+1.00,10:00-11:00,181,0.4972375690607735,0.430939226519337,0.049723756906077346,0.022099447513812154,96.66666666666667,76.5,79.53846153846153,57.0
+1.00,11:00-12:00,103,0.4563106796116505,0.44660194174757284,0.0970873786407767,0.0,101.29787234042553,84.0,88.23913043478261,66.0
+1.00,12:00-13:00,93,0.43010752688172044,0.3978494623655914,0.16129032258064516,0.010752688172043012,108.75,97.5,87.4054054054054,84.0
+1.00,13:00-14:00,93,0.41935483870967744,0.3225806451612903,0.22580645161290322,0.03225806451612903,76.84615384615384,72.0,62.3,63.0
+1.00,14:00-15:00,112,0.29464285714285715,0.375,0.30357142857142855,0.026785714285714284,40.0,36.0,40.357142857142854,37.5
+1.00,15:00-16:00,146,0.14383561643835616,0.19863013698630136,0.6575342465753424,0.0,20.857142857142858,18.0,15.620689655172415,18.0
+1.236,09:30-10:00,79,0.7215189873417721,0.24050632911392406,0.0,0.0379746835443038,16.894736842105264,9.0,27.789473684210527,24.0
+1.236,10:00-11:00,65,0.6307692307692307,0.2923076923076923,0.015384615384615385,0.06153846153846154,62.926829268292686,24.0,66.94736842105263,51.0
+1.236,11:00-12:00,46,0.6086956521739131,0.34782608695652173,0.043478260869565216,0.0,73.28571428571429,73.5,98.8125,88.5
+1.236,12:00-13:00,56,0.48214285714285715,0.35714285714285715,0.14285714285714285,0.017857142857142856,85.77777777777777,90.0,89.85,79.5
+1.236,13:00-14:00,58,0.5,0.25862068965517243,0.1896551724137931,0.05172413793103448,60.0,54.0,64.8,60.0
+1.236,14:00-15:00,78,0.48717948717948717,0.28205128205128205,0.19230769230769232,0.038461538461538464,32.76315789473684,33.0,31.772727272727273,13.5
+1.236,15:00-16:00,106,0.29245283018867924,0.16981132075471697,0.5377358490566038,0.0,17.225806451612904,15.0,19.166666666666668,13.5
+1.382,09:30-10:00,39,0.6410256410256411,0.28205128205128205,0.0,0.07692307692307693,4.56,0.0,4.090909090909091,3.0
+1.382,10:00-11:00,45,0.35555555555555557,0.5777777777777777,0.0,0.06666666666666667,44.4375,16.5,29.076923076923077,15.0
+1.382,11:00-12:00,31,0.3870967741935484,0.5806451612903226,0.0,0.03225806451612903,44.25,52.5,46.833333333333336,19.5
+1.382,12:00-13:00,23,0.43478260869565216,0.5217391304347826,0.0,0.043478260869565216,37.2,15.0,39.5,36.0
+1.382,13:00-14:00,29,0.41379310344827586,0.4482758620689655,0.034482758620689655,0.10344827586206896,34.0,27.0,31.615384615384617,21.0
+1.382,14:00-15:00,60,0.45,0.43333333333333335,0.03333333333333333,0.08333333333333333,22.333333333333332,18.0,26.307692307692307,13.5
+1.382,15:00-16:00,84,0.36904761904761907,0.2857142857142857,0.34523809523809523,0.0,12.387096774193548,9.0,11.25,6.0
+1.50,09:30-10:00,26,0.6153846153846154,0.3076923076923077,0.0,0.07692307692307693,6.5625,0.0,4.5,3.0
+1.50,10:00-11:00,24,0.20833333333333334,0.6666666666666666,0.0,0.125,35.4,24.0,22.125,1.5
+1.50,11:00-12:00,11,0.45454545454545453,0.45454545454545453,0.0,0.09090909090909091,19.2,18.0,12.0,9.0
+1.50,12:00-13:00,19,0.2631578947368421,0.6842105263157895,0.0,0.05263157894736842,14.4,12.0,36.46153846153846,21.0
+1.50,13:00-14:00,22,0.2727272727272727,0.6363636363636364,0.045454545454545456,0.045454545454545456,63.5,42.0,27.214285714285715,18.0
+1.50,14:00-15:00,39,0.358974358974359,0.5897435897435898,0.0,0.05128205128205128,24.642857142857142,21.0,19.82608695652174,9.0
+1.50,15:00-16:00,64,0.234375,0.546875,0.21875,0.0,8.6,9.0,6.6,0.0
+1.618,09:30-10:00,17,0.4117647058823529,0.47058823529411764,0.0,0.11764705882352941,1.7142857142857142,0.0,4.5,3.0
+1.618,10:00-11:00,18,0.2222222222222222,0.6666666666666666,0.05555555555555555,0.05555555555555555,76.5,40.5,46.0,6.0
+1.618,11:00-12:00,6,0.16666666666666666,0.8333333333333334,0.0,0.0,24.0,24.0,44.4,0.0
+1.618,12:00-13:00,9,0.5555555555555556,0.4444444444444444,0.0,0.0,55.2,36.0,2.25,3.0
+1.618,13:00-14:00,9,0.1111111111111111,0.6666666666666666,0.1111111111111111,0.1111111111111111,9.0,9.0,15.0,13.5
+1.618,14:00-15:00,22,0.3181818181818182,0.5,0.09090909090909091,0.09090909090909091,20.142857142857142,18.0,19.09090909090909,3.0
+1.618,15:00-16:00,58,0.25862068965517243,0.5,0.22413793103448276,0.017241379310344827,13.4,12.0,10.448275862068966,6.0
+1.786,09:30-10:00,11,0.5454545454545454,0.2727272727272727,0.0,0.18181818181818182,29.0,3.0,3.0,3.0
+1.786,10:00-11:00,6,0.3333333333333333,0.5,0.0,0.16666666666666666,13.5,13.5,105.0,69.0
+1.786,11:00-12:00,5,0.0,1.0,0.0,0.0,,,102.0,105.0
+1.786,12:00-13:00,9,0.3333333333333333,0.5555555555555556,0.1111111111111111,0.0,55.0,18.0,49.2,15.0
+1.786,13:00-14:00,4,0.0,0.5,0.0,0.5,,,79.5,79.5
+1.786,14:00-15:00,10,0.3,0.5,0.1,0.1,25.0,12.0,7.8,0.0
+1.786,15:00-16:00,34,0.17647058823529413,0.38235294117647056,0.38235294117647056,0.058823529411764705,9.5,9.0,8.76923076923077,9.0
+2.00,09:30-10:00,6,0.0,0.8333333333333334,0.0,0.16666666666666666,,,15.6,12.0
+2.00,10:00-11:00,6,0.3333333333333333,0.6666666666666666,0.0,0.0,55.5,55.5,33.75,27.0
+2.00,11:00-12:00,1,1.0,0.0,0.0,0.0,198.0,198.0,,
+2.00,12:00-13:00,4,0.5,0.5,0.0,0.0,36.0,36.0,108.0,108.0
+2.00,13:00-14:00,2,0.0,0.5,0.0,0.5,,,0.0,0.0
+2.00,14:00-15:00,4,0.25,0.75,0.0,0.0,0.0,0.0,22.0,21.0
+2.00,15:00-16:00,15,0.26666666666666666,0.4,0.3333333333333333,0.0,3.0,3.0,6.0,1.5
